   124       1.         5000.=WAVLEN FOR TAU & KAPPA    1=RAY NUMBER   Fontenla: model P, interpolated, plage model
  -9.970  1.74005E+08  36000.0 1.886E+00 9.295E-01 8.631E-04 4.042E-13 0.0 0.0E+00  0.00E+00
  -9.936  1.73994E+08  23500.0 1.841E+00 8.858E-01 2.675E-03 5.901E-13 0.0 0.0E+00  0.00E+00
  -9.852  1.73986E+08  17000.0 1.791E+00 8.356E-01 6.686E-03 7.695E-13 0.0 0.0E+00  0.00E+00
  -9.576  1.73975E+08  12000.0 1.708E+00 7.472E-01 1.914E-02 1.014E-12 0.0 0.0E+00  0.00E+00
  -9.276  1.73965E+08  10500.0 1.713E+00 7.017E-01 2.929E-02 1.148E-12 0.0 0.0E+00  0.00E+00
  -8.952  1.73950E+08   9600.0 1.705E+00 6.349E-01 3.733E-02 1.142E-12 0.0 0.0E+00  0.00E+00
  -8.660  1.73925E+08   9100.0 1.695E+00 5.516E-01 3.997E-02 1.051E-12 0.0 0.0E+00  0.00E+00
  -8.021  1.73700E+08   8700.0 1.672E+00 4.036E-01 3.494E-02 8.093E-13 0.0 0.0E+00  0.00E+00
  -7.845  1.73527E+08   8623.2 1.674E+00 3.829E-01 3.433E-02 7.759E-13 0.0 0.0E+00  0.00E+00
  -7.567  1.73034E+08   8540.7 1.691E+00 3.580E-01 3.335E-02 7.342E-13 0.0 0.0E+00  0.00E+00
  -7.256  1.71873E+08   8480.5 1.750E+00 3.493E-01 3.343E-02 7.228E-13 0.0 0.0E+00  0.00E+00
  -6.986  1.70000E+08   8400.0 1.863E+00 3.584E-01 3.554E-02 7.523E-13 0.0 0.0E+00  0.00E+00
  -6.729  1.67193E+08   8290.8 2.056E+00 3.813E-01 3.960E-02 8.187E-13 0.0 0.0E+00  0.00E+00
  -6.429  1.62329E+08   8139.2 2.457E+00 4.229E-01 4.654E-02 9.453E-13 0.0 0.0E+00  0.00E+00
  -6.133  1.55356E+08   7936.4 3.206E+00 4.638E-01 5.446E-02 1.112E-12 0.0 0.0E+00  0.00E+00
  -5.892  1.47503E+08   7700.0 4.419E+00 4.858E-01 5.918E-02 1.328E-12 0.0 0.0E+00  0.00E+00
  -5.760  1.42119E+08   7539.7 5.574E+00 4.918E-01 5.914E-02 1.536E-12 0.0 0.0E+00  0.00E+00
  -5.636  1.36177E+08   7368.1 7.261E+00 4.886E-01 5.526E-02 1.853E-12 0.0 0.0E+00  0.00E+00
  -5.528  1.30183E+08   7205.3 9.683E+00 4.801E-01 4.831E-02 2.353E-12 0.0 0.0E+00  0.00E+00
  -5.449  1.25283E+08   7083.9 1.251E+01 4.761E-01 4.188E-02 3.000E-12 0.0 0.0E+00  0.00E+00
  -5.385  1.21000E+08   6980.0 1.572E+01 4.732E-01 3.603E-02 3.832E-12 0.0 0.0E+00  0.00E+00
  -5.263  1.12417E+08   6756.3 2.531E+01 4.584E-01 2.421E-02 7.025E-12 0.0 0.0E+00  0.00E+00
  -5.158  1.04769E+08   6555.4 4.060E+01 4.364E-01 1.600E-02 1.333E-11 0.0 0.0E+00  0.00E+00
  -5.088  9.96498E+07   6428.7 5.623E+01 4.209E-01 1.255E-02 2.059E-11 0.0 0.0E+00  0.00E+00
  -5.046  9.67704E+07   6361.9 6.761E+01 4.153E-01 1.119E-02 2.637E-11 0.0 0.0E+00  0.00E+00
  -5.019  9.49760E+07   6321.8 7.591E+01 4.133E-01 1.052E-02 3.090E-11 0.0 0.0E+00  0.00E+00
  -4.992  9.32435E+07   6283.2 8.500E+01 4.117E-01 9.958E-03 3.624E-11 0.0 0.0E+00  0.00E+00
  -4.965  9.15753E+07   6245.3 9.491E+01 4.098E-01 9.487E-03 4.256E-11 0.0 0.0E+00  0.00E+00
  -4.940  9.00855E+07   6210.0 1.049E+02 4.070E-01 9.097E-03 4.944E-11 0.0 0.0E+00  0.00E+00
  -4.919  8.88708E+07   6179.7 1.139E+02 4.037E-01 8.788E-03 5.604E-11 0.0 0.0E+00  0.00E+00
  -4.897  8.77005E+07   6149.3 1.234E+02 3.996E-01 8.500E-03 6.323E-11 0.0 0.0E+00  0.00E+00
  -4.876  8.65763E+07   6119.3 1.332E+02 3.950E-01 8.232E-03 7.085E-11 0.0 0.0E+00  0.00E+00
  -4.855  8.55000E+07   6090.0 1.433E+02 3.901E-01 7.986E-03 7.876E-11 0.0 0.0E+00  0.00E+00
  -4.793  8.26222E+07   6009.2 1.740E+02 3.747E-01 7.391E-03 1.037E-10 0.0 0.0E+00  0.00E+00
  -4.731  8.00832E+07   5932.2 2.073E+02 3.574E-01 6.937E-03 1.358E-10 0.0 0.0E+00  0.00E+00
  -4.669  7.77982E+07   5854.2 2.441E+02 3.372E-01 6.566E-03 1.807E-10 0.0 0.0E+00  0.00E+00
  -4.607  7.56823E+07   5770.2 2.854E+02 3.132E-01 6.218E-03 2.443E-10 0.0 0.0E+00  0.00E+00
  -4.561  7.41778E+07   5701.5 3.195E+02 2.927E-01 5.944E-03 3.069E-10 0.0 0.0E+00  0.00E+00
  -4.523  7.29706E+07   5641.1 3.497E+02 2.745E-01 5.706E-03 3.705E-10 0.0 0.0E+00  0.00E+00
  -4.485  7.18067E+07   5579.6 3.814E+02 2.563E-01 5.473E-03 4.470E-10 0.0 0.0E+00  0.00E+00
  -4.447  7.06997E+07   5518.9 4.142E+02 2.390E-01 5.258E-03 5.381E-10 0.0 0.0E+00  0.00E+00
  -4.405  6.95438E+07   5454.6 4.518E+02 2.220E-01 5.058E-03 6.596E-10 0.0 0.0E+00  0.00E+00
  -4.353  6.82636E+07   5383.7 4.983E+02 2.057E-01 4.885E-03 8.345E-10 0.0 0.0E+00  0.00E+00
  -4.302  6.70965E+07   5321.0 5.461E+02 1.937E-01 4.781E-03 1.034E-09 0.0 0.0E+00  0.00E+00
  -4.250  6.60170E+07   5266.4 5.953E+02 1.854E-01 4.737E-03 1.253E-09 0.0 0.0E+00  0.00E+00
  -4.199  6.50000E+07   5220.0 6.464E+02 1.802E-01 4.746E-03 1.486E-09 0.0 0.0E+00  0.00E+00
  -4.134  6.37670E+07   5172.4 7.142E+02 1.773E-01 4.821E-03 1.794E-09 0.0 0.0E+00  0.00E+00
  -4.068  6.25869E+07   5135.0 7.859E+02 1.778E-01 4.955E-03 2.120E-09 0.0 0.0E+00  0.00E+00
  -4.003  6.14527E+07   5104.7 8.618E+02 1.807E-01 5.139E-03 2.468E-09 0.0 0.0E+00  0.00E+00
  -3.938  6.03576E+07   5078.4 9.424E+02 1.852E-01 5.361E-03 2.842E-09 0.0 0.0E+00  0.00E+00
  -3.866  5.91960E+07   5050.9 1.037E+03 1.910E-01 5.635E-03 3.288E-09 0.0 0.0E+00  0.00E+00
  -3.792  5.80183E+07   5023.0 1.142E+03 1.980E-01 5.956E-03 3.794E-09 0.0 0.0E+00  0.00E+00
  -3.717  5.68690E+07   4996.8 1.256E+03 2.063E-01 6.319E-03 4.339E-09 0.0 0.0E+00  0.00E+00
  -3.643  5.57420E+07   4973.4 1.380E+03 2.162E-01 6.730E-03 4.920E-09 0.0 0.0E+00  0.00E+00
  -3.567  5.46083E+07   4953.7 1.518E+03 2.284E-01 7.207E-03 5.549E-09 0.0 0.0E+00  0.00E+00
  -3.487  5.34415E+07   4937.8 1.674E+03 2.436E-01 7.770E-03 6.242E-09 0.0 0.0E+00  0.00E+00
  -3.408  5.22857E+07   4925.9 1.845E+03 2.613E-01 8.402E-03 6.985E-09 0.0 0.0E+00  0.00E+00
  -3.329  5.11391E+07   4917.0 2.032E+03 2.814E-01 9.103E-03 7.787E-09 0.0 0.0E+00  0.00E+00
  -3.250  5.00000E+07   4910.0 2.237E+03 3.037E-01 9.875E-03 8.659E-09 0.0 0.0E+00  0.00E+00
  -3.169  4.88434E+07   4904.2 2.466E+03 3.288E-01 1.074E-02 9.630E-09 0.0 0.0E+00  0.00E+00
  -3.088  4.76903E+07   4900.1 2.717E+03 3.567E-01 1.168E-02 1.069E-08 0.0 0.0E+00  0.00E+00
  -3.008  4.65383E+07   4898.1 2.996E+03 3.880E-01 1.271E-02 1.185E-08 0.0 0.0E+00  0.00E+00
  -2.927  4.53851E+07   4899.0 3.305E+03 4.231E-01 1.383E-02 1.311E-08 0.0 0.0E+00  0.00E+00
  -2.847  4.42371E+07   4903.1 3.646E+03 4.622E-01 1.505E-02 1.448E-08 0.0 0.0E+00  0.00E+00
  -2.767  4.30889E+07   4910.4 4.022E+03 5.059E-01 1.636E-02 1.596E-08 0.0 0.0E+00  0.00E+00
  -2.687  4.19354E+07   4920.0 4.437E+03 5.547E-01 1.778E-02 1.758E-08 0.0 0.0E+00  0.00E+00
  -2.607  4.07762E+07   4931.6 4.893E+03 6.091E-01 1.933E-02 1.934E-08 0.0 0.0E+00  0.00E+00
  -2.528  3.96187E+07   4944.3 5.390E+03 6.690E-01 2.099E-02 2.124E-08 0.0 0.0E+00  0.00E+00
  -2.450  3.84709E+07   4957.6 5.928E+03 7.343E-01 2.277E-02 2.330E-08 0.0 0.0E+00  0.00E+00
  -2.371  3.73180E+07   4971.4 6.521E+03 8.063E-01 2.471E-02 2.556E-08 0.0 0.0E+00  0.00E+00
  -2.293  3.61607E+07   4985.6 7.177E+03 8.859E-01 2.682E-02 2.806E-08 0.0 0.0E+00  0.00E+00
  -2.215  3.50000E+07   5000.0 7.905E+03 9.734E-01 2.913E-02 3.084E-08 0.0 0.0E+00  0.00E+00
  -2.138  3.38568E+07   5014.3 8.697E+03 1.068E+00 3.161E-02 3.386E-08 0.0 0.0E+00  0.00E+00
  -2.061  3.27089E+07   5029.2 9.576E+03 1.173E+00 3.430E-02 3.718E-08 0.0 0.0E+00  0.00E+00
  -1.984  3.15541E+07   5045.4 1.055E+04 1.291E+00 3.722E-02 4.079E-08 0.0 0.0E+00  0.00E+00
  -1.908  3.03903E+07   5063.5 1.163E+04 1.422E+00 4.038E-02 4.467E-08 0.0 0.0E+00  0.00E+00
  -1.832  2.92415E+07   5083.5 1.279E+04 1.567E+00 4.371E-02 4.874E-08 0.0 0.0E+00  0.00E+00
  -1.758  2.80954E+07   5105.4 1.405E+04 1.727E+00 4.727E-02 5.307E-08 0.0 0.0E+00  0.00E+00
  -1.684  2.69405E+07   5128.9 1.544E+04 1.903E+00 5.110E-02 5.775E-08 0.0 0.0E+00  0.00E+00
  -1.610  2.57782E+07   5153.4 1.697E+04 2.096E+00 5.526E-02 6.286E-08 0.0 0.0E+00  0.00E+00
  -1.536  2.46185E+07   5178.2 1.862E+04 2.304E+00 5.973E-02 6.842E-08 0.0 0.0E+00  0.00E+00
  -1.463  2.34708E+07   5202.8 2.040E+04 2.530E+00 6.452E-02 7.441E-08 0.0 0.0E+00  0.00E+00
  -1.390  2.23185E+07   5227.8 2.234E+04 2.786E+00 6.978E-02 8.094E-08 0.0 0.0E+00  0.00E+00
  -1.318  2.11615E+07   5253.4 2.447E+04 3.081E+00 7.559E-02 8.800E-08 0.0 0.0E+00  0.00E+00
  -1.245  2.00000E+07   5280.0 2.679E+04 3.426E+00 8.205E-02 9.563E-08 0.0 0.0E+00  0.00E+00
  -1.173  1.88526E+07   5307.2 2.929E+04 3.818E+00 8.909E-02 1.037E-07 0.0 0.0E+00  0.00E+00
  -1.102  1.77012E+07   5335.0 3.201E+04 4.249E+00 9.672E-02 1.125E-07 0.0 0.0E+00  0.00E+00
  -1.030  1.65459E+07   5363.0 3.499E+04 4.700E+00 1.048E-01 1.220E-07 0.0 0.0E+00  0.00E+00
  -0.959  1.53871E+07   5390.9 3.823E+04 5.153E+00 1.133E-01 1.325E-07 0.0 0.0E+00  0.00E+00
  -0.888  1.42324E+07   5418.0 4.173E+04 5.593E+00 1.220E-01 1.439E-07 0.0 0.0E+00  0.00E+00
  -0.817  1.30789E+07   5446.2 4.552E+04 6.084E+00 1.316E-01 1.561E-07 0.0 0.0E+00  0.00E+00
  -0.746  1.19242E+07   5478.6 4.965E+04 6.740E+00 1.428E-01 1.689E-07 0.0 0.0E+00  0.00E+00
  -0.675  1.07694E+07   5518.2 5.413E+04 7.674E+00 1.567E-01 1.821E-07 0.0 0.0E+00  0.00E+00
  -0.603  9.60064E+06   5568.6 5.906E+04 9.016E+00 1.743E-01 1.956E-07 0.0 0.0E+00  0.00E+00
  -0.530  8.40867E+06   5632.4 6.450E+04 1.084E+01 1.966E-01 2.092E-07 0.0 0.0E+00  0.00E+00
  -0.456  7.23593E+06   5706.8 7.024E+04 1.300E+01 2.229E-01 2.223E-07 0.0 0.0E+00  0.00E+00
  -0.383  6.09539E+06   5790.0 7.616E+04 1.538E+01 2.527E-01 2.345E-07 0.0 0.0E+00  0.00E+00
  -0.309  5.00000E+06   5880.0 8.218E+04 1.786E+01 2.857E-01 2.455E-07 0.0 0.0E+00  0.00E+00
  -0.219  3.73521E+06   5998.1 8.954E+04 2.135E+01 3.331E-01 2.570E-07 0.0 0.0E+00  0.00E+00
  -0.129  2.54586E+06   6129.4 9.688E+04 2.757E+01 4.034E-01 2.664E-07 0.0 0.0E+00  0.00E+00
  -0.039  1.42054E+06   6279.8 1.042E+05 3.929E+01 5.153E-01 2.743E-07 0.0 0.0E+00  0.00E+00
   0.051  3.47844E+05   6455.1 1.116E+05 5.926E+01 6.876E-01 2.809E-07 0.0 0.0E+00  0.00E+00
   0.110 -3.27618E+05   6585.2 1.163E+05 7.805E+01 8.412E-01 2.847E-07 0.0 0.0E+00  0.00E+00
   0.153 -8.08923E+05   6688.1 1.198E+05 9.559E+01 9.784E-01 2.872E-07 0.0 0.0E+00  0.00E+00
   0.195 -1.27393E+06   6795.5 1.232E+05 1.172E+02 1.139E+00 2.894E-07 0.0 0.0E+00  0.00E+00
   0.238 -1.71795E+06   6905.8 1.265E+05 1.439E+02 1.327E+00 2.912E-07 0.0 0.0E+00  0.00E+00
   0.286 -2.17683E+06   7028.3 1.299E+05 1.799E+02 1.567E+00 2.926E-07 0.0 0.0E+00  0.00E+00
   0.341 -2.67822E+06   7172.7 1.337E+05 2.327E+02 1.899E+00 2.935E-07 0.0 0.0E+00  0.00E+00
   0.397 -3.14312E+06   7315.3 1.373E+05 2.971E+02 2.284E+00 2.940E-07 0.0 0.0E+00  0.00E+00
   0.453 -3.58066E+06   7454.8 1.406E+05 3.737E+02 2.723E+00 2.943E-07 0.0 0.0E+00  0.00E+00
   0.509 -4.00000E+06   7590.0 1.439E+05 4.632E+02 3.215E+00 2.948E-07 0.0 0.0E+00  0.00E+00
   0.575 -4.47898E+06   7742.0 1.476E+05 5.860E+02 3.865E+00 2.959E-07 0.0 0.0E+00  0.00E+00
   0.640 -4.94663E+06   7888.4 1.513E+05 7.313E+02 4.605E+00 2.975E-07 0.0 0.0E+00  0.00E+00
   0.706 -5.40405E+06   8031.2 1.549E+05 9.031E+02 5.452E+00 2.991E-07 0.0 0.0E+00  0.00E+00
   0.771 -5.85238E+06   8172.8 1.585E+05 1.105E+03 6.421E+00 3.005E-07 0.0 0.0E+00  0.00E+00
   0.839 -6.30929E+06   8320.2 1.622E+05 1.351E+03 7.574E+00 3.015E-07 0.0 0.0E+00  0.00E+00
   0.908 -6.76894E+06   8470.8 1.660E+05 1.645E+03 8.929E+00 3.019E-07 0.0 0.0E+00  0.00E+00
   0.978 -7.22729E+06   8619.8 1.699E+05 1.987E+03 1.050E+01 3.020E-07 0.0 0.0E+00  0.00E+00
   1.047 -7.68864E+06   8765.6 1.738E+05 2.383E+03 1.232E+01 3.021E-07 0.0 0.0E+00  0.00E+00
   1.115 -8.14989E+06   8904.0 1.777E+05 2.830E+03 1.438E+01 3.025E-07 0.0 0.0E+00  0.00E+00
   1.181 -8.60495E+06   9032.8 1.815E+05 3.316E+03 1.663E+01 3.032E-07 0.0 0.0E+00  0.00E+00
   1.247 -9.06641E+06   9157.4 1.853E+05 3.841E+03 1.907E+01 3.042E-07 0.0 0.0E+00  0.00E+00
   1.313 -9.53214E+06   9279.4 1.892E+05 4.393E+03 2.163E+01 3.053E-07 0.0 0.0E+00  0.00E+00
   1.379 -1.00000E+07   9400.0 1.931E+05 4.958E+03 2.426E+01 3.066E-07 0.0 0.0E+00  0.00E+00
 
 LOG(TAU)    Z          TEMP    PRESS    EL PRESS   KAPPA     DENS     B    MICROT     V
            [CM]         [K]    [CGS]     [CGS]    [GM^-1]  [G/CM^3]   [G]  [CM/S]   [CM/S]
